Dystans (m),Wysokość (m)
0,520.6836547851562
5.513195448244276,520.731201171875
11.026390896488552,520.7785034179688
16.53958634473283,520.82861328125
22.052781792977104,520.8988037109375
27.56597724122138,520.968505859375
33.07917268946566,521.03759765625
38.59236813770993,521.1039428710938
44.10556358595421,521.1681518554688
49.61875903419848,521.2304077148438
55.13195448244276,521.2623901367188
60.64514993068703,521.2847900390625
66.15834537893132,521.307861328125
71.67154082717559,521.3504028320312
77.18473627541987,521.4098510742188
82.69793172366414,521.4717407226562
88.21112717190842,521.5324096679688
93.72432262015269,521.5894775390625
99.23751806839697,521.6491088867188
104.75071351664124,521.70458984375
110.26390896488552,521.7319946289062
115.77710441312979,521.7592163085938
121.29029986137407,521.7863159179688
126.80349530961834,521.807861328125
132.31669075786263,521.8316040039062
137.8298862061069,521.8575439453125
143.34308165435118,521.9002075195312
148.85627710259544,521.9480590820312
154.36947255083973,521.9978637695312
159.882667999084,522.0608520507812
165.39586344732828,522.1307983398438
170.90905889557254,522.2010498046875
176.42225434381683,522.28369140625
181.93544979206112,522.3822631835938
187.44864524030538,522.4828491210938
192.96184068854967,522.618896484375
198.47503613679393,522.8590698242188
203.98823158503822,523.1199340820312
209.50142703328248,523.3958129882812
215.01462248152677,523.6294555664062
220.52781792977103,523.8787841796875
226.04101337801532,524.143798828125
231.55420882625958,525.1165771484375
237.06740427450387,526.2960205078125
242.58059972274813,527.5402221679688
248.09379517099242,530.1624145507812
253.60699061923668,533.3388061523438
259.120186067481,536.5527954101562
264.63338151572526,540.5006713867188
270.14657696396955,545.0873413085938
275.6597724122138,549.7076416015625
281.1729678604581,554.715087890625
286.68616330870236,560.4058227539062
292.19935875694665,566.1260986328125
297.7125542051909,572.081787109375
303.2257496534352,579.068115234375
308.73894510167946,586.0472412109375
314.25214054992375,593.0191040039062
319.765335998168,600.6007080078125
325.2785314464123,608.2630615234375
330.79172689465656,615.99658203125
336.30492234290085,623.226318359375
341.8181177911451,630.4735717773438
347.3313132393894,637.9556884765625
352.84450868763366,643.9146728515625
358.35770413587795,648.958251953125
363.87089958412224,654.1702880859375
369.3840950323665,659.7340698242188
374.89729048061076,665.5377197265625
380.41048592885505,671.272705078125
385.92368137709934,676.79296875
391.4368768253436,681.8035888671875
396.95007227358786,686.7481689453125
402.46326772183215,691.5670776367188
407.97646317007644,695.5013427734375
413.4896586183207,699.4649047851562
419.00285406656496,703.457763671875
424.51604951480925,707.04931640625
430.02924496305354,710.6217651367188
435.5424404112978,714.234375
441.05563585954206,717.93408203125
446.56883130778635,721.7780151367188
452.08202675603064,725.6881103515625
457.59522220427493,729.9790649414062
463.10841765251917,734.60009765625
468.62161310076345,739.231689453125
474.13480854900774,743.9705810546875
479.64800399725203,748.677490234375
485.16119944549627,753.033447265625
490.67439489374055,756.68994140625
496.18759034198484,757.9606323242188
501.70078579022913,758.9265747070312
507.21398123847337,759.5878295898438
512.7271766867177,758.9857788085938
518.240372134962,758.2098388671875
523.7535675832062,757.3025512695312
529.2667630314505,755.7276611328125
534.7799584796948,753.8911743164062
540.2931539279391,751.9502563476562
545.8063493761833,749.342041015625
551.3195448244276,746.2452392578125
556.8327402726719,743.0903930664062
562.3459357209161,739.6157836914062
567.8591311691604,735.7182006835938
573.3723266174047,731.7855834960938
578.885522065649,727.6951293945312
584.3987175138933,723.18798828125
589.9119129621375,718.7144775390625
595.4251084103818,714.3198852539062
600.9383038586261,710.8829345703125
606.4514993068703,707.2247314453125
611.9646947551146,703.3453369140625
617.4778902033589,698.7527465820312
622.9910856516032,694.05810546875
628.5042810998475,689.3588256835938
634.0174765480917,684.2625122070312
639.530671996336,678.9564819335938
645.0438674445803,673.6283569335938
650.5570628928245,668.212646484375
656.0702583410689,662.7470703125
661.5834537893131,657.3529663085938
667.0966492375574,652.0465087890625
672.6098446858017,646.8610229492188
678.1230401340459,641.7120361328125
683.6362355822902,636.6112060546875
689.1494310305345,631.628173828125
694.6626264787787,626.6777954101562
700.1758219270231,621.7600708007812
705.6890173752673,617.29150390625
711.2022128235116,612.922607421875
716.7154082717559,608.626953125
722.2286037200001,604.8011474609375
727.7417991682445,601.23388671875
733.2549946164887,597.80322265625
738.768190064733,594.1802978515625
744.2813855129773,590.3806762695312
749.7945809612215,586.6348876953125
755.3077764094658,583.1456298828125
760.8209718577101,579.9602661132812
766.3341673059543,576.632080078125
771.8473627541987,573.2659301757812
777.3605582024429,569.8425903320312
782.8737536506871,566.5060424804688
788.3869490989315,563.2732543945312
793.9001445471757,561.07568359375
799.4133399954201,558.9977416992188
804.9265354436643,557.0394287109375
810.4397308919085,556.2512817382812
815.9529263401529,555.767822265625
821.4661217883971,555.3775634765625
826.9793172366414,555.4456787109375
832.4925126848857,555.8267211914062
838.0057081331299,556.3290405273438
843.5189035813743,557.5684204101562
849.0320990296185,559.6994018554688
854.5452944778627,562.039794921875
860.0584899261071,564.8934326171875
865.5716853743513,568.68603515625
871.0848808225956,572.6126098632812
876.5980762708399,576.5585327148438
882.1112717190841,580.094970703125
887.6244671673285,583.7021484375
893.1376626155727,587.3799438476562
898.6508580638169,590.7078247070312
904.1640535120613,594.0275268554688
909.6772489603055,597.3767700195312
915.1904444085499,600.714599609375
920.7036398567941,604.0466918945312
926.2168353050383,607.3849487304688
931.7300307532827,611.2007446289062
937.2432262015269,615.4231567382812
942.7564216497711,619.663330078125
948.2696170980155,624.255859375
953.7828125462597,629.464599609375
959.2960079945041,634.7049560546875
964.8092034427483,639.8143310546875
970.3223988909925,644.200927734375
975.8355943392369,648.6278686523438
981.3487897874811,653.1322021484375
986.8619852357255,658.5302124023438
992.3751806839697,663.9420776367188
997.8883761322139,669.363037109375
1003.4015715804583,674.3644409179688
1008.9147670287025,679.2688598632812
1014.4279624769467,684.1759643554688
1019.9411579251911,688.9470825195312
1025.4543533734354,693.6370239257812
1030.9675488216797,698.328125
1036.480744269924,702.850341796875
1041.9939397181681,707.1669311523438
1047.5071351664124,711.4949340820312
1053.0203306146568,715.7102661132812
1058.533526062901,719.5792846679688
1064.0467215111453,723.4566040039062
1069.5599169593895,727.2786254882812
1075.0731124076337,730.302001953125
1080.5863078558782,733.2984008789062
1086.0995033041224,736.2650756835938
1091.6126987523667,738.0675048828125
1097.125894200611,739.6788940429688
1102.6390896488551,741.2363891601562
1108.1522850970994,742.5379028320312
1113.6654805453438,743.767578125
1119.178675993588,745.0206298828125
1124.6918714418323,746.1860961914062
1130.2050668900765,747.1978149414062
1135.7182623383208,748.1333618164062
1141.2314577865652,749.3802490234375
1146.7446532348094,751.3563232421875
1152.2578486830537,753.32958984375
1157.771044131298,754.8697509765625
1163.2842395795421,754.0828247070312
1168.7974350277866,753.3355712890625
1174.3106304760308,752.6281127929688
1179.823825924275,751.6038208007812
1185.3370213725193,750.5714721679688
1190.8502168207635,749.4868774414062
1196.363412269008,748.95166015625
1201.8766077172522,748.547119140625
1207.3898031654965,748.1160888671875
1212.9029986137407,747.5411376953125
1218.416194061985,746.8815307617188
1223.9293895102292,746.2193603515625
1229.4425849584736,745.1494750976562
1234.9557804067178,743.5126342773438
1240.468975854962,741.8701782226562
1245.9821713032063,739.8145141601562
1251.4953667514505,736.4039306640625
1257.008562199695,732.9526977539062
1262.5217576479392,729.4848022460938
1268.0349530961835,726.4390869140625
1273.5481485444277,723.3773803710938
1279.061343992672,720.2996215820312
1284.5745394409164,717.8111572265625
1290.0877348891606,715.376708984375
1295.6009303374049,712.9002685546875
1301.114125785649,710.4989624023438
1306.6273212338933,708.1001586914062
1312.1405166821378,705.646484375
1317.653712130382,702.9248046875
1323.1669075786263,699.9413452148438
1328.6801030268705,696.912353515625
1334.1932984751147,693.7066650390625
1339.7064939233592,690.178955078125
1345.2196893716034,686.619140625
1350.7328848198476,683.0445556640625
1356.2460802680919,679.55419921875
1361.759275716336,676.0341796875
1367.2724711645803,672.4845581054688
1372.7856666128248,669.0863647460938
1378.298862061069,665.704345703125
1383.8120575093133,662.3292846679688
1389.3252529575575,659.2432861328125
1394.8384484058017,656.2962646484375
1400.3516438540462,653.4066162109375
1405.8648393022904,650.5061645507812
1411.3780347505347,647.67919921875
1416.8912301987789,644.860595703125
1422.4044256470231,641.7472534179688
1427.9176210952676,638.0607299804688
1433.4308165435118,634.214111328125
1438.944011991756,629.9451904296875
1444.4572074400003,624.5630493164062
1449.9704028882445,619.065185546875
1455.483598336489,613.4554443359375
1460.9967937847332,607.9430541992188
1466.5099892329774,602.468994140625
1472.0231846812217,597.033203125
1477.536380129466,592.9451904296875
1483.0495755777101,589.2106323242188
1488.5627710259546,585.5921020507812
1494.0759664741988,582.7576904296875
1499.589161922443,580.350341796875
1505.1023573706873,578.0175170898438
1510.6155528189315,577.5254516601562
1516.128748267176,579.0145874023438
1521.6419437154202,580.59912109375
1527.1551391636644,582.4727172851562
1532.6683346119087,584.80517578125
1538.181530060153,587.065673828125
1543.6947255083974,589.149658203125
1549.2079209566416,590.315185546875
1554.7211164048858,591.455322265625
1560.23431185313,592.5701293945312
1565.7475073013743,593.2078857421875
1571.2607027496188,593.8078002929688
1576.773898197863,594.4085083007812
1582.2870936461072,594.7283935546875
1587.8002890943515,594.9576416015625
1593.3134845425957,595.1968383789062
1598.8266799908401,595.4089965820312
1604.3398754390844,595.6038818359375
1609.8530708873286,595.811767578125
1615.3662663355728,596.2654418945312
1620.879461783817,597.1246337890625
1626.3926572320613,597.98876953125
1631.9058526803058,598.9349365234375
1637.41904812855,600.2323608398438
1642.9322435767942,601.5540771484375
1648.4454390250385,602.9012451171875
1653.9586344732827,604.6679077148438
1659.4718299215272,606.3871459960938
1664.9850253697714,608.0590209960938
1670.4982208180156,609.096435546875
1676.0114162662599,609.9571533203125
1681.524611714504,610.7708740234375
1687.0378071627485,611.3936767578125
1692.5510026109928,611.9404907226562
1698.064198059237,612.5059204101562
1703.5773935074812,613.1475219726562
1709.0905889557255,613.8954467773438
1714.60378440397,614.6862182617188
1720.1169798522142,615.549072265625
1725.6301753004584,616.5094604492188
1731.1433707487026,617.4822387695312
1736.6565661969469,618.4473266601562
1742.169761645191,619.1715087890625
1747.6829570934356,619.84814453125
1753.1961525416798,620.4771118164062
1758.709347989924,620.329833984375
1764.2225434381683,620.005859375
1769.7357388864125,619.5845336914062
1775.248934334657,618.4983520507812
1780.7621297829012,617.1239013671875
1786.2753252311454,615.6934204101562
1791.7885206793896,614.145263671875
1797.3017161276339,612.5421752929688
1802.8149115758783,610.9557495117188
1808.3281070241226,609.3510131835938
1813.8413024723668,607.7070922851562
1819.354497920611,606.0945434570312
1824.8676933688553,604.5465698242188
1830.3808888170997,603.1810302734375
1835.894084265344,601.8338623046875
1841.4072797135882,600.50927734375
1846.9204751618324,599.5419311523438
1852.4336706100767,598.61279296875
1857.9468660583211,597.714599609375
1863.4600615065654,597.0906372070312
1868.9732569548096,596.5543212890625
1874.4864524030538,596.0421752929688
1879.999647851298,595.697998046875
1885.5128432995423,595.4366455078125
1891.0260387477867,595.1586303710938
1896.539234196031,595.1767578125
1902.0524296442752,595.566162109375
1907.5656250925194,595.8939819335938
1913.0788205407637,596.3778076171875
1918.5920159890081,597.5299682617188
1924.1052114372524,598.70166015625
1929.6184068854966,599.9097900390625
1935.1316023337408,601.4977416992188
1940.644797781985,603.16796875
1946.1579932302295,604.7986450195312
1951.6711886784738,606.2213134765625
1957.184384126718,607.6032104492188
1962.6975795749622,608.9700927734375
1968.2107750232065,610.1514892578125
1973.723970471451,611.261474609375
1979.2371659196951,612.3800048828125
1984.7503613679394,613.4794311523438
1990.2635568161836,614.5558471679688
1995.7767522644278,615.6348266601562
2001.289947712672,616.69091796875
2006.8031431609165,617.6895751953125
2012.3163386091608,618.680908203125
2017.829534057405,619.5759887695312
2023.3427295056492,619.9364013671875
2028.8559249538935,620.3344116210938
2034.369120402138,620.77001953125
2039.8823158503822,621.6985473632812
2045.3955112986264,622.6553955078125
2050.908706746871,623.6172485351562
2056.421902195115,625.0411376953125
2061.9350976433593,626.5802001953125
2067.4482930916033,628.0949096679688
2072.961488539848,629.5283203125
2078.4746839880922,630.8916015625
2083.9878794363362,632.2235107421875
2089.5010748845807,633.5682983398438
2095.0142703328247,634.994873046875
2100.527465781069,636.457275390625
2106.0406612293136,637.97265625
2111.5538566775576,639.596435546875
2117.067052125802,641.2742309570312
2122.580247574046,643.0079345703125
2128.0934430222906,644.8455810546875
2133.606638470535,646.7352905273438
2139.119833918779,648.6771850585938
2144.6330293670235,651.4238891601562
2150.1462248152675,654.6075439453125
2155.659420263512,657.9924926757812
2161.1726157117564,662.5804443359375
2166.6858111600004,667.6843872070312
2172.199006608245,672.7422485351562
2177.712202056489,677.4837036132812
2183.2253975047333,681.7575073242188
2188.7385929529773,685.80810546875
2194.251788401222,688.9623413085938
2199.7649838494663,690.4283447265625
2205.2781792977103,691.85693359375
2210.7913747459547,693.147216796875
2216.3045701941987,693.6339721679688
2221.817765642443,694.116455078125
2227.3309610906877,694.5947265625
2232.8441565389317,694.09765625
2238.357351987176,693.4125366210938
2243.87054743542,692.6085815429688
2249.3837428836646,690.78955078125
2254.896938331909,688.4349365234375
2260.410133780153,685.9302978515625
2265.9233292283975,683.1553955078125
2271.4365246766415,680.23876953125
2276.949720124886,677.3792114257812
2282.4629155731304,674.7943115234375
2287.9761110213744,672.70556640625
2293.489306469619,670.7908935546875
2299.002501917863,669.2978515625
2304.5156973661074,668.9415893554688
2310.028892814352,668.6448364257812
2315.542088262596,668.4057006835938
2321.0552837108403,667.9393310546875
2326.5684791590843,667.34130859375
2332.0816746073288,666.6117553710938
2337.594870055573,665.6752319335938
2343.108065503817,664.6149291992188
2348.6212609520617,663.4490356445312
2354.1344564003057,662.1406860351562
2359.64765184855,660.77587890625
2365.1608472967946,659.3955078125
2370.6740427450386,657.876953125
2376.187238193283,656.178466796875
2381.700433641527,654.483154296875
2387.2136290897715,652.5602416992188
2392.726824538016,650.0165405273438
2398.24001998626,647.4602661132812
2403.7532154345045,644.8164672851562
2409.2664108827485,641.4234008789062
2414.779606330993,638.068603515625
2420.2928017792374,634.7520751953125
2425.8059972274814,631.616455078125
2431.319192675726,628.514892578125
2436.83238812397,625.4315185546875
2442.3455835722143,622.5526733398438
2447.8587790204583,619.8215942382812
2453.371974468703,617.1753540039062
2458.8851699169472,615.2079467773438
2464.3983653651912,613.86328125
2469.9115608134357,612.8541259765625
2475.4247562616797,612.2838745117188
2480.937951709924,612.203125
2486.4511471581686,612.1287231445312
2491.9643426064126,612.03515625
2497.477538054657,611.7579345703125
2502.990733502901,611.3767700195312
2508.5039289511456,610.8917236328125
2514.01712439939,609.8135375976562
2519.530319847634,608.627197265625
2525.0435152958785,607.34033203125
2530.5567107441225,605.8362426757812
2536.069906192367,604.285888671875
2541.5831016406114,602.7274169921875
2547.0962970888554,601.46240234375
2552.6094925371,600.4557495117188
2558.122687985344,599.5383911132812
2563.6358834335883,599.2701416015625
2569.149078881833,599.7986450195312
2574.662274330077,600.4197387695312
2580.1754697783213,601.5054931640625
2585.6886652265653,603.7120361328125
2591.2018606748097,605.933837890625
2596.715056123054,608.1939086914062
2602.228251571298,610.8372192382812
2607.7414470195426,613.559326171875
2613.2546424677867,616.3601684570312
2618.767837916031,619.2431640625
2624.2810333642756,622.1156005859375
2629.7942288125196,624.971435546875
2635.307424260764,627.222412109375
2640.820619709008,629.11865234375
2646.3338151572525,630.9024658203125
2651.847010605497,632.02490234375
2657.360206053741,632.525146484375
2662.8734015019854,632.93115234375
2668.3865969502294,633.081787109375
2673.899792398474,632.860107421875
2679.4129878467184,632.5757446289062
2684.9261832949624,631.9009399414062
2690.439378743207,630.2640991210938
2695.952574191451,628.5858154296875
2701.4657696396953,626.8660278320312
2706.9789650879393,624.4091796875
2712.4921605361837,621.8532104492188
2718.005355984428,619.2266845703125
2723.518551432672,615.9735107421875
2729.0317468809167,612.5177001953125
2734.5449423291607,609.023681640625
2740.058137777405,604.5626220703125
2745.5713332256496,599.4153442382812
2751.0845286738936,594.2217407226562
2756.597724122138,588.3088989257812
2762.110919570382,581.3692626953125
2767.6241150186265,574.3812866210938
2773.137310466871,567.6038818359375
2778.650505915115,561.705078125
2784.1637013633595,555.8004760742188
2789.6768968116035,549.7662963867188
2795.190092259848,547.3152465820312
2800.7032877080924,544.849853515625
2806.2164831563364,542.3701782226562
2811.729678604581,539.8836669921875
2817.242874052825,537.3607788085938